# dimensionless total [l(l+1)/2pi] C_l's
# for l=2 to 3000, i.e. number of multipoles equal to 2999
#
# -> if you prefer output in CAMB/HealPix/LensPix units/order, set 'format' to 'camb' in input file
# -> if you don't want to see such a header, set 'headers' to 'no' in input file
# -> for CMB lensing (phi), these are C_l^phi-phi for the lensing potential.
#    Remember the conversion factors:
#    C_l^dd (deflection) = l(l+1) C_l^phi-phi
#    C_l^gg (shear/convergence) = 1/4 (l(l+1))^2 C_l^phi-phi
#
# 1:l     2:TT                     3:EE                     4:TE                     5:BB                     6:phiphi                 7:TPhi                   8:Ephi               
    2       1.367927193125e-10       4.159243875038e-15       3.526335238878e-13       0.000000000000e+00       8.134961862607e-09       4.445106361801e-10      -1.842798601329e-12 
    3       1.295935842598e-10       5.349252010695e-15       3.964503825800e-13       0.000000000000e+00       5.054137409204e-09       3.156333033451e-10      -1.397319385295e-12 
    4       1.227531404705e-10       4.642283938813e-15       3.707844142961e-13       0.000000000000e+00       3.519416608743e-09       2.389401763843e-10      -9.173079858164e-13 
    5       1.176267229248e-10       3.107558744322e-15       3.158737601374e-13       0.000000000000e+00       2.626727090593e-09       1.886559180661e-10      -5.125390320324e-13 
    6       1.141177691731e-10       1.741653158193e-15       2.544588323819e-13       0.000000000000e+00       2.049971308239e-09       1.534175294432e-10      -2.134639046918e-13 
    7       1.118388682948e-10       9.397189984308e-16       1.997870900668e-13       0.000000000000e+00       1.652438813040e-09       1.275601566769e-10      -2.190944318260e-14 
    8       1.105233830667e-10       6.029320450880e-16       1.576749586110e-13       0.000000000000e+00       1.365523235623e-09       1.079786528001e-10       7.665299602023e-14 
    9       1.099309999440e-10       4.823931190274e-16       1.294131930957e-13       0.000000000000e+00       1.150341445275e-09       9.281644435384e-11       1.051490822156e-13 
   10       1.098300451268e-10       4.113071718499e-16       1.137381297658e-13       0.000000000000e+00       9.837059599901e-10       8.082175504793e-11       8.912621965788e-14 
   11       1.101702182773e-10       3.458801475952e-16       1.079860720860e-13       0.000000000000e+00       8.273487876456e-10       7.141613603360e-11       5.254903424095e-14 
   12       1.107964254232e-10       3.010041680999e-16       1.090962255392e-13       0.000000000000e+00       7.227777666331e-10       6.313591549341e-11       1.299461958883e-14 
   13       1.116611532285e-10       2.881053839777e-16       1.143922951005e-13       0.000000000000e+00       6.369494017707e-10       5.641775598303e-11      -1.741060483184e-14 
   14       1.127247687377e-10       2.996695493514e-16       1.218234152653e-13       0.000000000000e+00       5.655545949978e-10       5.057756853393e-11      -3.424157838290e-14 
   15       1.139688048623e-10       3.239261953933e-16       1.300820424574e-13       0.000000000000e+00       5.054682270327e-10       4.566059419341e-11      -3.757351178800e-14 
   16       1.153152271227e-10       3.580443296837e-16       1.385167450956e-13       0.000000000000e+00       4.543889497614e-10       4.141886266584e-11      -3.124170014785e-14 
   17       1.167985679477e-10       4.073461029000e-16       1.468870039386e-13       0.000000000000e+00       4.105791478052e-10       3.771620782019e-11      -2.038363669609e-14 
   18       1.183542740604e-10       4.775006592385e-16       1.553821509588e-13       0.000000000000e+00       3.725594435645e-10       3.449819277927e-11      -9.872786074213e-15 
   19       1.199938735362e-10       5.690088033254e-16       1.642513743281e-13       0.000000000000e+00       3.397272005298e-10       3.171400832694e-11      -2.344548227053e-15 
   20       1.217118366606e-10       6.799667434069e-16       1.736982062612e-13       0.000000000000e+00       3.108140340098e-10       2.923914042939e-11       4.282104385036e-16 
   21       1.235078133341e-10       8.096251619128e-16       1.836692726694e-13       0.000000000000e+00       2.853649136440e-10       2.702746651539e-11      -1.050800848606e-15 
   22       1.253532754129e-10       9.573409096548e-16       1.939516570773e-13       0.000000000000e+00       2.627705886359e-10       2.502679010494e-11      -5.100116905796e-15 
   23       1.272551367988e-10       1.123432172264e-15       2.042327066874e-13       0.000000000000e+00       2.427197131868e-10       2.323306701690e-11      -1.000136337940e-14 
   24       1.292100516301e-10       1.308309716760e-15       2.141210421119e-13       0.000000000000e+00       2.247478897084e-10       2.163376292916e-11      -1.390205035987e-14 
   25       1.312175558879e-10       1.511962203977e-15       2.233120392908e-13       0.000000000000e+00       2.086434779854e-10       2.020361457278e-11      -1.594800052594e-14 
   26       1.332630359543e-10       1.734484289800e-15       2.315334955072e-13       0.000000000000e+00       1.941148272319e-10       1.890044251466e-11      -1.576508759512e-14 
   27       1.353442262486e-10       1.977873883022e-15       2.386823208493e-13       0.000000000000e+00       1.809871814405e-10       1.771173731501e-11      -1.392874321817e-14 
   28       1.374537270574e-10       2.244706708175e-15       2.447356716761e-13       0.000000000000e+00       1.690336350980e-10       1.662618974925e-11      -1.140302205697e-14 
   29       1.396003236762e-10       2.536451465589e-15       2.497534554394e-13       0.000000000000e+00       1.581930161103e-10       1.564125930673e-11      -8.832109830842e-15 
   30       1.417862669097e-10       2.854224542965e-15       2.538572861845e-13       0.000000000000e+00       1.483489003234e-10       1.474763018632e-11      -6.878248429653e-15 
   31       1.440033734136e-10       3.199083108040e-15       2.571729748288e-13       0.000000000000e+00       1.393004074096e-10       1.392753250205e-11      -6.161305664028e-15 
   32       1.462549217953e-10       3.571959906077e-15       2.596543147132e-13       0.000000000000e+00       1.310006576833e-10       1.317321260956e-11      -6.539111078663e-15 
   33       1.485393026962e-10       3.973691343221e-15       2.611925331424e-13       0.000000000000e+00       1.233907345610e-10       1.247370296222e-11      -7.545882027421e-15 
   34       1.508478741664e-10       4.405063703319e-15       2.616633495024e-13       0.000000000000e+00       1.163638913567e-10       1.181469861922e-11      -8.651653993573e-15 
   35       1.531820808753e-10       4.866942779889e-15       2.609381337737e-13       0.000000000000e+00       1.098841014042e-10       1.119769276969e-11      -9.558867126939e-15 
   36       1.555405777485e-10       5.360181004681e-15       2.588742670483e-13       0.000000000000e+00       1.038993631073e-10       1.062678598936e-11      -1.000040870562e-14 
   37       1.579179221824e-10       5.885580644012e-15       2.553406606436e-13       0.000000000000e+00       9.833175466359e-11       1.010320005083e-11      -9.751799680982e-15 
   38       1.603186451362e-10       6.443898717375e-15       2.503199481128e-13       0.000000000000e+00       9.316686053133e-11       9.624780094745e-12      -8.952178461293e-15 
   39       1.627466934462e-10       7.035836911788e-15       2.438406201417e-13       0.000000000000e+00       8.838825231150e-11       9.185804181384e-12      -7.892666859619e-15 
   40       1.652009625261e-10       7.662035206516e-15       2.359512124272e-13       0.000000000000e+00       8.395028572238e-11       8.776716830946e-12      -6.936445726027e-15 
   41       1.676776259735e-10       8.323105868463e-15       2.266994855815e-13       0.000000000000e+00       7.979399358311e-11       8.387089400858e-12      -6.425240161036e-15 
   42       1.701793530408e-10       9.019758242076e-15       2.160589191934e-13       0.000000000000e+00       7.590711282482e-11       8.016410188464e-12      -6.350937139953e-15 
   43       1.727081699385e-10       9.752707935403e-15       2.039803155655e-13       0.000000000000e+00       7.227930927038e-11       7.666281789328e-12      -6.584928068206e-15 
   44       1.752624980368e-10       1.052264106520e-14       1.904114540179e-13       0.000000000000e+00       6.888416590594e-11       7.337366510597e-12      -6.965024343860e-15 
   45       1.778390242820e-10       1.133017846579e-14       1.753008849995e-13       0.000000000000e+00       6.568861482262e-11       7.029498048366e-12      -7.330422692867e-15 
   46       1.804398048448e-10       1.217575875337e-14       1.586114012947e-13       0.000000000000e+00       6.268761244001e-11       6.742261283729e-12      -7.643983041701e-15 
   47       1.830666892366e-10       1.305971799446e-14       1.403100627137e-13       0.000000000000e+00       5.987765309464e-11       6.474437879893e-12      -7.902957924703e-15 
   48       1.857190672482e-10       1.398231785186e-14       1.203643652233e-13       0.000000000000e+00       5.724631076646e-11       6.223749109696e-12      -8.105160696951e-15 
   49       1.883936465036e-10       1.494374224468e-14       9.874216501281e-14       0.000000000000e+00       5.477157577851e-11       5.986780323911e-12      -8.249013017182e-15 
   50       1.910864769032e-10       1.594412478876e-14       7.541238853213e-14       0.000000000000e+00       5.242848129536e-11       5.759953660628e-12      -8.337588167169e-15 
   51       1.938001878556e-10       1.698364764754e-14       5.034756598544e-14       0.000000000000e+00       5.021264215490e-11       5.542932673930e-12      -8.391924711686e-15 
   52       1.965383309980e-10       1.806246373976e-14       2.352185426934e-14       0.000000000000e+00       4.812195883108e-11       5.336011292025e-12      -8.441408758184e-15 
   53       1.993031910588e-10       1.918066645764e-14      -5.089726917733e-15       0.000000000000e+00       4.614957341557e-11       5.139120766311e-12      -8.520323907567e-15 
   54       2.020956691475e-10       2.033828777536e-14      -3.551133402252e-14       0.000000000000e+00       4.428354936679e-11       4.951803468678e-12      -8.668086776472e-15 
   55       2.049158916431e-10       2.153531891101e-14      -6.776336821049e-14       0.000000000000e+00       4.251051176948e-11       4.773434980208e-12      -8.917348774650e-15 
   56       2.077654813678e-10       2.277178265640e-14      -1.018527390839e-13       0.000000000000e+00       4.082836076383e-11       4.604014992894e-12      -9.254300575827e-15 
   57       2.106456461935e-10       2.404767570241e-14      -1.377802504811e-13       0.000000000000e+00       3.923615546035e-11       4.443526988805e-12      -9.648918960995e-15 
   58       2.135564163591e-10       2.536294666916e-14      -1.755432838270e-13       0.000000000000e+00       3.773026780582e-11       4.291690993542e-12      -1.006600452529e-14 
   59       2.164965560298e-10       2.671749509314e-14      -2.151357213518e-13       0.000000000000e+00       3.630421663790e-11       4.147947047237e-12      -1.046494445695e-14 
   60       2.194634748565e-10       2.811117041452e-14      -2.565478693086e-13       0.000000000000e+00       3.494850173981e-11       4.011438675540e-12      -1.079947531632e-14 
   61       2.224544561519e-10       2.954370281338e-14      -2.997677028546e-13       0.000000000000e+00       3.365324111159e-11       3.881252521680e-12      -1.102831116210e-14 
   62       2.254708636428e-10       3.101447986852e-14      -3.447851009231e-13       0.000000000000e+00       3.241714994475e-11       3.757237490450e-12      -1.115035229931e-14 
   63       2.285147263263e-10       3.252271774204e-14      -3.915884299889e-13       0.000000000000e+00       3.124029177405e-11       3.639340975632e-12      -1.117699452610e-14 
   64       2.315874594349e-10       3.406752179424e-14      -4.401632721290e-13       0.000000000000e+00       3.012137762971e-11       3.527360688774e-12      -1.112206655907e-14 
   65       2.346898177702e-10       3.564788340847e-14      -4.904923901762e-13       0.000000000000e+00       2.905768903592e-11       3.420936257979e-12      -1.100193756145e-14 
   66       2.378218490386e-10       3.726267681601e-14      -5.425556928722e-13       0.000000000000e+00       2.804500100947e-11       3.319540826692e-12      -1.083562467134e-14 
   67       2.409828471852e-10       3.891065592087e-14      -5.963302000214e-13       0.000000000000e+00       2.707750505835e-11       3.222472652490e-12      -1.064490052997e-14 
   68       2.441719794789e-10       4.059058060947e-14      -6.517917864173e-13       0.000000000000e+00       2.614936011774e-11       3.129038829004e-12      -1.045007664864e-14 
   69       2.473904196262e-10       4.230163249693e-14      -7.089209018488e-13       0.000000000000e+00       2.525988240528e-11       3.039168459555e-12      -1.025612100363e-14 
   70       2.506395650367e-10       4.404307810499e-14      -7.676979528432e-13       0.000000000000e+00       2.440927367015e-11       2.952909207201e-12      -1.006390774453e-14 
   71       2.539203724100e-10       4.581414696481e-14      -8.281016368988e-13       0.000000000000e+00       2.359705156869e-11       2.870242739705e-12      -9.874289458537e-15 
   72       2.572333283015e-10       4.761403175348e-14      -8.901089531316e-13       0.000000000000e+00       2.282201429822e-11       2.791081241956e-12      -9.688094106348e-15 
   73       2.605784196887e-10       4.944188843045e-14      -9.536952129213e-13       0.000000000000e+00       2.208220523080e-11       2.715263928398e-12      -9.506121958009e-15 
   74       2.639551045376e-10       5.129683637405e-14      -1.018834050558e-12       0.000000000000e+00       2.137487754709e-11       2.642553555447e-12      -9.329142528793e-15 
   75       2.673622823682e-10       5.317795851793e-14      -1.085497433888e-12       0.000000000000e+00       2.069645887011e-11       2.572632933920e-12      -9.157891515068e-15 
   76       2.707988624793e-10       5.508423810835e-14      -1.153654752576e-12       0.000000000000e+00       2.004343792394e-11       2.505186269825e-12      -8.993141229781e-15 
   77       2.742656533100e-10       5.701435536012e-14      -1.223269867402e-12       0.000000000000e+00       1.941528935255e-11       2.440168020495e-12      -8.835933510773e-15 
   78       2.777637657378e-10       5.896685379557e-14      -1.294303539735e-12       0.000000000000e+00       1.881202048052e-11       2.377576957222e-12      -8.687383914836e-15 
   79       2.812940290847e-10       6.094019918977e-14      -1.366714298042e-12       0.000000000000e+00       1.823328041115e-11       2.317373966471e-12      -8.548610454185e-15 
   80       2.848569739387e-10       6.293277840739e-14      -1.440458429629e-12       0.000000000000e+00       1.767834356712e-11       2.259480301773e-12      -8.420732039493e-15 
   81       2.884528149757e-10       6.494289823953e-14      -1.515489972367e-12       0.000000000000e+00       1.714609323118e-11       2.203775835623e-12      -8.304866922935e-15 
   82       2.920814337809e-10       6.696878424055e-14      -1.591760706425e-12       0.000000000000e+00       1.663500508682e-11       2.150097311380e-12      -8.202131141221e-15 
   83       2.957423616703e-10       6.900857956487e-14      -1.669220146006e-12       0.000000000000e+00       1.614313075894e-11       2.098236595164e-12      -8.113636958643e-15 
   84       2.994350695865e-10       7.106041631311e-14      -1.747816511463e-12       0.000000000000e+00       1.566857128275e-11       2.047992805139e-12      -8.040042521486e-15 
   85       3.031599306332e-10       7.312264570791e-14      -1.827499848944e-12       0.000000000000e+00       1.521102374872e-11       1.999342457912e-12      -7.980118451668e-15 
   86       3.069173863542e-10       7.519364412118e-14      -1.908219415165e-12       0.000000000000e+00       1.477046207342e-11       1.952294454892e-12      -7.931939665231e-15 
   87       3.107076420071e-10       7.727174401220e-14      -1.989922751093e-12       0.000000000000e+00       1.434666176419e-11       1.906837882621e-12      -7.893304067577e-15 
   88       3.145306545450e-10       7.935523398309e-14      -2.072555690154e-12       0.000000000000e+00       1.393919169398e-11       1.862941170171e-12      -7.861723453845e-15 
   89       3.183861205996e-10       8.144235883427e-14      -2.156062366443e-12       0.000000000000e+00       1.354740587607e-11       1.820551246549e-12      -7.834414409282e-15 
   90       3.222734644634e-10       8.353131961998e-14      -2.240385222933e-12       0.000000000000e+00       1.317043523883e-11       1.779592698093e-12      -7.808289209617e-15 
   91       3.261918260721e-10       8.562027370370e-14      -2.325465019684e-12       0.000000000000e+00       1.280717940051e-11       1.739966925875e-12      -7.779946721434e-15 
   92       3.301400489874e-10       8.770733481366e-14      -2.411240842052e-12       0.000000000000e+00       1.245629844397e-11       1.701551303100e-12      -7.745663302548e-15 
   93       3.341170327792e-10       8.979059976992e-14      -2.497650775340e-12       0.000000000000e+00       1.211653083843e-11       1.664230436299e-12      -7.702240358689e-15 
   94       3.381228769007e-10       9.186823314342e-14      -2.584634026987e-12       0.000000000000e+00       1.178771976636e-11       1.627997157341e-12      -7.649712594566e-15 
   95       3.421578874336e-10       9.393839549148e-14      -2.672129140216e-12       0.000000000000e+00       1.146992666681e-11       1.592865233420e-12      -7.589032154947e-15 
   96       3.462222210957e-10       9.599921823660e-14      -2.760073373164e-12       0.000000000000e+00       1.116311514415e-11       1.558838220119e-12      -7.521250885369e-15 
   97       3.503158782253e-10       9.804880408809e-14      -2.848402716232e-12       0.000000000000e+00       1.086714721986e-11       1.525909059497e-12      -7.447522991697e-15 
   98       3.544386957661e-10       1.000852274636e-13      -2.937051909449e-12       0.000000000000e+00       1.058177958416e-11       1.494059678172e-12      -7.369107699671e-15 
   99       3.585903402513e-10       1.021065349109e-13      -3.025954459826e-12       0.000000000000e+00       1.030665984785e-11       1.463260585400e-12      -7.287371914467e-15 
  100       3.627703007881e-10       1.041107455291e-13      -3.115042658712e-12       0.000000000000e+00       1.004132279392e-11       1.433470471166e-12      -7.203792880245e-15 
  101       3.669778820430e-10       1.060958513905e-13      -3.204247599156e-12       0.000000000000e+00       9.785186629380e-12       1.404635804261e-12      -7.119960839708e-15 
  102       3.712121972253e-10       1.080598179624e-13      -3.293499193261e-12       0.000000000000e+00       9.537549236934e-12       1.376690430372e-12      -7.037581693651e-15 
  103       3.754721610725e-10       1.100005845282e-13      -3.382726189542e-12       0.000000000000e+00       9.297584426717e-12       1.349555170161e-12      -6.958479660520e-15 
  104       3.797567187488e-10       1.119161161181e-13      -3.471856801808e-12       0.000000000000e+00       9.064529251207e-12       1.323156055960e-12      -6.884208257448e-15 
  105       3.840655828685e-10       1.138045663812e-13      -3.560820655181e-12       0.000000000000e+00       8.838282840823e-12       1.297482713171e-12      -6.814817666028e-15 
  106       3.883985834183e-10       1.156641376036e-13      -3.649547136539e-12       0.000000000000e+00       8.618881851020e-12       1.272537152767e-12      -6.749925038634e-15 
  107       3.927554363641e-10       1.174930321398e-13      -3.737964830251e-12       0.000000000000e+00       8.406314994041e-12       1.248315642220e-12      -6.689089682984e-15 
